# time[min],msd[nmnm]
0.000000000000000000e+00 0.000000000000000000e+00
1.000000000000000056e-01 1.130213722285244193e+00
2.000000000000000111e-01 2.145043387964297388e+00
3.000000000000000444e-01 3.728771647666281552e+00
4.000000000000000222e-01 5.091933173358870413e+00
5.000000000000000000e-01 6.280912860971928247e+00
6.000000000000000888e-01 7.554806270672395740e+00
7.000000000000000666e-01 8.988368779053551805e+00
8.000000000000000444e-01 1.047322479237441684e+01
9.000000000000000222e-01 1.109930873743757473e+01
1.000000000000000000e+00 1.295431415511480999e+01
1.100000000000000089e+00 1.374592964034341058e+01
1.200000000000000178e+00 1.631513520039308673e+01
1.300000000000000044e+00 1.909941293028491316e+01
1.400000000000000133e+00 1.997690872125804873e+01
1.500000000000000000e+00 2.093754290452194766e+01
1.600000000000000089e+00 2.156234390976373305e+01
1.700000000000000178e+00 2.243172803232405954e+01
1.800000000000000044e+00 2.426628575759730566e+01
1.900000000000000133e+00 2.649474205645600833e+01
2.000000000000000000e+00 2.879067849538887813e+01
2.100000000000000089e+00 2.804580944654810892e+01
2.200000000000000178e+00 2.877215062311794469e+01
2.300000000000000266e+00 3.047700277469752450e+01
2.400000000000000355e+00 3.272254199704401856e+01
2.500000000000000000e+00 3.345038151125378079e+01
2.600000000000000089e+00 3.541117824685491655e+01
2.700000000000000178e+00 3.750361660678820641e+01
2.800000000000000266e+00 3.928099560320002581e+01
2.900000000000000355e+00 4.092019212306070841e+01
3.000000000000000000e+00 3.967790384217025945e+01
3.100000000000000089e+00 3.801788985950309296e+01
3.200000000000000178e+00 4.039140561383538142e+01
3.300000000000000266e+00 3.975668879164407343e+01
3.400000000000000355e+00 4.125232652775357423e+01
3.500000000000000000e+00 3.974315660927175742e+01
3.600000000000000089e+00 3.894150574861549075e+01
3.700000000000000178e+00 3.825258360751534781e+01
3.800000000000000266e+00 3.982577223770839225e+01
3.900000000000000355e+00 4.071014827833937488e+01
4.000000000000000000e+00 4.166640372915076540e+01
4.100000000000000533e+00 4.289528882712208002e+01
4.200000000000000178e+00 4.662362237646981100e+01
4.299999999999999822e+00 4.587990904589452157e+01
4.400000000000000355e+00 4.756377023151575401e+01
4.500000000000000000e+00 5.010991079033770745e+01
4.600000000000000533e+00 5.081246904118836483e+01
4.700000000000000178e+00 5.186633037407900559e+01
4.800000000000000711e+00 5.549767157015247676e+01
4.900000000000000355e+00 5.556154224883717774e+01
5.000000000000000000e+00 5.676443436227609141e+01
5.100000000000000533e+00 5.572632042856833579e+01
5.200000000000000178e+00 5.724244982009125948e+01
5.300000000000000711e+00 5.640750018940774879e+01
5.400000000000000355e+00 5.506445936586531786e+01
5.500000000000000000e+00 5.809816899844548033e+01
5.600000000000000533e+00 5.919640768711029466e+01
5.700000000000000178e+00 6.210539932887814984e+01
5.800000000000000711e+00 6.183569075632095036e+01
5.900000000000000355e+00 6.009806018637468128e+01
6.000000000000000000e+00 6.061936723910956459e+01
6.100000000000000533e+00 6.187425807316596860e+01
6.200000000000000178e+00 5.917160821010555338e+01
6.300000000000000711e+00 5.586809878994002077e+01
6.400000000000000355e+00 5.778407338800192861e+01
6.500000000000000000e+00 5.959558761021152407e+01
6.600000000000000533e+00 6.082437324836153891e+01
6.700000000000000178e+00 6.344946888015549291e+01
6.800000000000000711e+00 6.400140259903605511e+01
6.900000000000000355e+00 6.670578865218232067e+01
7.000000000000000000e+00 6.889819729081834510e+01
7.100000000000000533e+00 7.144795625873432243e+01
7.200000000000000178e+00 7.283761415984855603e+01
7.300000000000000711e+00 7.451872194069214572e+01
7.400000000000000355e+00 7.806842299884534953e+01
7.500000000000000000e+00 8.082296117674628988e+01
7.600000000000000533e+00 8.178959035137894773e+01
7.700000000000000178e+00 8.485055803448703671e+01
7.800000000000000711e+00 8.737298493444676240e+01
7.900000000000000355e+00 8.538994771260280459e+01
8.000000000000000000e+00 8.455691728008339680e+01
8.099999999999999645e+00 8.448483034878424291e+01
8.200000000000001066e+00 8.175165487169381606e+01
8.300000000000000711e+00 8.252884762077114544e+01
8.400000000000000355e+00 7.965498423420980600e+01
8.500000000000000000e+00 7.646193254464643019e+01
8.599999999999999645e+00 7.466711827097522303e+01
8.700000000000001066e+00 7.744590758957096455e+01
8.800000000000000711e+00 7.298170797561901679e+01
8.900000000000000355e+00 6.989330027481314289e+01
9.000000000000000000e+00 7.499224880520615955e+01
9.099999999999999645e+00 7.482944424919401172e+01
9.200000000000001066e+00 7.484113224224705618e+01
9.300000000000000711e+00 7.311700025071972675e+01
9.400000000000000355e+00 7.526815566951921710e+01
9.500000000000000000e+00 7.690153753050738317e+01
9.600000000000001421e+00 7.974294660332583362e+01
9.700000000000001066e+00 7.977745705367551921e+01
9.800000000000000711e+00 8.305047104341352338e+01
9.900000000000000355e+00 8.290844043436196387e+01
1.000000000000000000e+01 8.500575789652606318e+01
1.010000000000000142e+01 8.342750412032511065e+01
1.020000000000000107e+01 8.244386200984276059e+01
1.030000000000000071e+01 8.843604894763559798e+01
1.040000000000000036e+01 9.042336114334284503e+01
1.050000000000000000e+01 9.031796210240685241e+01
1.060000000000000142e+01 9.288538559173734654e+01
1.070000000000000107e+01 9.500305388137570617e+01
1.080000000000000071e+01 9.992682899866186119e+01
1.090000000000000036e+01 1.028666666568660730e+02
1.100000000000000000e+01 1.063785720309335829e+02
1.110000000000000142e+01 1.052520192277560795e+02
1.120000000000000107e+01 1.047503219678032735e+02
1.130000000000000071e+01 1.050078250972860303e+02
1.140000000000000036e+01 1.035679694782974707e+02
1.150000000000000000e+01 1.072112735637776382e+02
1.160000000000000142e+01 1.087081414635001408e+02
1.170000000000000107e+01 1.088791209258833845e+02
1.180000000000000071e+01 1.044462246113073149e+02
1.190000000000000036e+01 1.050129088919526481e+02
1.200000000000000000e+01 1.051109003780203039e+02
1.210000000000000142e+01 1.069104383126816060e+02
1.220000000000000107e+01 1.085202426766887243e+02
1.230000000000000071e+01 1.088132424433628671e+02
1.240000000000000036e+01 1.062920033477629147e+02
1.250000000000000000e+01 1.117204630270600916e+02
1.260000000000000142e+01 1.121610523592940893e+02
1.270000000000000107e+01 1.168705302739014371e+02
1.280000000000000071e+01 1.178839599608387658e+02
1.290000000000000036e+01 1.225821037850994770e+02
1.300000000000000000e+01 1.211412555174774894e+02
1.310000000000000142e+01 1.244049493222555469e+02
1.320000000000000107e+01 1.279991753535110348e+02
1.330000000000000071e+01 1.288257968737674446e+02
1.340000000000000036e+01 1.286970022816146297e+02
1.350000000000000000e+01 1.312572557077211570e+02
1.360000000000000142e+01 1.337655044709487981e+02
1.370000000000000107e+01 1.340906876395042957e+02
1.380000000000000071e+01 1.309158869518423955e+02
1.390000000000000036e+01 1.380472732807297120e+02
1.400000000000000000e+01 1.376369847758042795e+02
1.410000000000000142e+01 1.414526536862545925e+02
1.420000000000000107e+01 1.394723834519883212e+02
1.430000000000000071e+01 1.371107579660146598e+02
1.440000000000000036e+01 1.379112008458385787e+02
1.450000000000000000e+01 1.357499631520676928e+02
1.460000000000000142e+01 1.365847272024599306e+02
1.470000000000000107e+01 1.331803713159248730e+02
1.480000000000000071e+01 1.316857048067053881e+02
1.490000000000000036e+01 1.351285371772695214e+02
1.500000000000000000e+01 1.294785551154978975e+02
1.510000000000000142e+01 1.319489041501657312e+02
1.520000000000000107e+01 1.368934128742390328e+02
1.530000000000000071e+01 1.381630968198045650e+02
1.540000000000000036e+01 1.340167784996644968e+02
1.550000000000000000e+01 1.321816040235389949e+02
1.560000000000000142e+01 1.351188154905364058e+02
1.570000000000000107e+01 1.390750386403546202e+02
1.580000000000000071e+01 1.430380352215977098e+02
1.590000000000000036e+01 1.432955916746757339e+02
1.600000000000000000e+01 1.469916780368960758e+02
1.610000000000000142e+01 1.489255179882706273e+02
1.619999999999999929e+01 1.452674392867422739e+02
1.630000000000000071e+01 1.453406606547129627e+02
1.640000000000000213e+01 1.486651657135208211e+02
1.650000000000000000e+01 1.474374110487206622e+02
1.660000000000000142e+01 1.454120988326214103e+02
1.669999999999999929e+01 1.549953098740514577e+02
1.680000000000000071e+01 1.567698443887657334e+02
1.690000000000000213e+01 1.552640768842973671e+02
1.700000000000000000e+01 1.528549395661733286e+02
1.710000000000000142e+01 1.535572870389821674e+02
1.719999999999999929e+01 1.519591640116464930e+02
1.730000000000000071e+01 1.516791214750081167e+02
1.740000000000000213e+01 1.528601275113614406e+02
1.750000000000000000e+01 1.497856025502036346e+02
1.760000000000000142e+01 1.506769587237362771e+02
1.769999999999999929e+01 1.517517997331451056e+02
1.780000000000000071e+01 1.507198271019148876e+02
1.790000000000000213e+01 1.499046920792350761e+02
1.800000000000000000e+01 1.500119813728283873e+02
1.810000000000000142e+01 1.449871969814044803e+02
1.819999999999999929e+01 1.444672290046991918e+02
1.830000000000000071e+01 1.497403041705917133e+02
1.840000000000000213e+01 1.493626785427092898e+02
1.850000000000000000e+01 1.534047667858854140e+02
1.860000000000000142e+01 1.537918103541881862e+02
1.869999999999999929e+01 1.537305486791555609e+02
1.880000000000000071e+01 1.587923589834619520e+02
1.890000000000000213e+01 1.623499813665389411e+02
1.900000000000000000e+01 1.672772222901808448e+02
1.910000000000000142e+01 1.650052811799433528e+02
1.920000000000000284e+01 1.678989727704004054e+02
1.930000000000000071e+01 1.696383476620153772e+02
1.940000000000000213e+01 1.740478430284999547e+02
1.950000000000000000e+01 1.760674806608142546e+02
1.960000000000000142e+01 1.737029223265371911e+02
1.970000000000000284e+01 1.751833268302254965e+02
1.980000000000000071e+01 1.768157217594671238e+02
1.990000000000000213e+01 1.822214842648189403e+02
2.000000000000000000e+01 1.836121850083693801e+02
2.010000000000000142e+01 1.822695134477397403e+02
2.020000000000000284e+01 1.835088305792207564e+02
2.030000000000000071e+01 1.837500794113667268e+02
2.040000000000000213e+01 1.880390960650398142e+02
2.050000000000000000e+01 1.904702965937205192e+02
2.060000000000000142e+01 1.948875936134733990e+02
2.070000000000000284e+01 2.009232142312495171e+02
2.080000000000000071e+01 2.036581683839890786e+02
2.090000000000000213e+01 2.021505088834722983e+02
2.100000000000000000e+01 2.009533262525861232e+02
2.110000000000000142e+01 1.976493951828801130e+02
2.120000000000000284e+01 2.000945318125030212e+02
2.130000000000000071e+01 1.964256463687104031e+02
2.140000000000000213e+01 1.946322191875196381e+02
2.150000000000000000e+01 1.984114038073979600e+02
2.160000000000000142e+01 1.991500735173483179e+02
2.170000000000000284e+01 1.918826748264796436e+02
2.180000000000000071e+01 1.981388327830029255e+02
2.190000000000000213e+01 2.006097381292307205e+02
2.200000000000000000e+01 1.967375520360770338e+02
2.210000000000000142e+01 1.991978907108183989e+02
2.220000000000000284e+01 2.070625009712306337e+02
2.230000000000000071e+01 2.055201442151654874e+02
2.240000000000000213e+01 2.079401608072680858e+02
2.250000000000000000e+01 2.066740000022277854e+02
2.260000000000000142e+01 2.090468114426743114e+02
2.270000000000000284e+01 2.107108680570465822e+02
2.280000000000000071e+01 2.181149698456181341e+02
2.290000000000000213e+01 2.234318709681734276e+02
2.300000000000000000e+01 2.233253345937612551e+02
2.310000000000000142e+01 2.268344247622122509e+02
2.320000000000000284e+01 2.280400903491685085e+02
2.330000000000000071e+01 2.345898845845460983e+02
2.340000000000000213e+01 2.296962632485825964e+02
2.350000000000000000e+01 2.259291131043900691e+02
2.360000000000000142e+01 2.274538687355822901e+02
2.370000000000000284e+01 2.318814458458641923e+02
2.380000000000000071e+01 2.332391803217058168e+02
2.390000000000000213e+01 2.350501301730804471e+02
2.400000000000000000e+01 2.428608044332815155e+02
2.410000000000000142e+01 2.380518946150535271e+02
2.420000000000000284e+01 2.387973433699285124e+02
2.430000000000000071e+01 2.415132324287709480e+02
2.440000000000000213e+01 2.387884567716857021e+02
2.450000000000000000e+01 2.443272776436754157e+02
2.460000000000000142e+01 2.433738618532209443e+02
2.470000000000000284e+01 2.465199285569111964e+02
2.480000000000000071e+01 2.526342428300061442e+02
2.490000000000000213e+01 2.497819154596676299e+02
2.500000000000000000e+01 2.466546747908031421e+02
2.510000000000000142e+01 2.464891151479584153e+02
2.520000000000000284e+01 2.484540236587761797e+02
2.530000000000000071e+01 2.481634676648168636e+02
2.540000000000000213e+01 2.552035853380315302e+02
2.550000000000000000e+01 2.561747480365492038e+02
2.560000000000000142e+01 2.563819391293682202e+02
2.570000000000000284e+01 2.610623928348983327e+02
2.580000000000000071e+01 2.634656093063668436e+02
2.590000000000000213e+01 2.706892479531767890e+02
2.600000000000000000e+01 2.751359653700624222e+02
2.610000000000000142e+01 2.784610541017977994e+02
2.620000000000000284e+01 2.786442553819260297e+02
2.630000000000000071e+01 2.704684170347946406e+02
2.640000000000000213e+01 2.853181641592143478e+02
2.650000000000000000e+01 2.891928420304657266e+02
2.660000000000000142e+01 2.856518580340497806e+02
2.670000000000000284e+01 2.836282967558844916e+02
2.680000000000000071e+01 2.755861733695156204e+02
2.690000000000000213e+01 2.768989236075244094e+02
2.700000000000000000e+01 2.804517416893641553e+02
2.710000000000000142e+01 2.823758612649826318e+02
2.720000000000000284e+01 2.817712629104477173e+02
2.730000000000000071e+01 2.896114516501198750e+02
2.740000000000000213e+01 2.895479158488711278e+02
2.750000000000000000e+01 2.945702189593464482e+02
2.760000000000000142e+01 2.928984224126162985e+02
2.770000000000000284e+01 2.935052057556685554e+02
2.780000000000000071e+01 2.953955694156727532e+02
2.790000000000000213e+01 2.997802276872348557e+02
2.800000000000000000e+01 2.944665310133201501e+02
2.810000000000000142e+01 3.023933970082179599e+02
2.820000000000000284e+01 3.062196949412364120e+02
2.830000000000000071e+01 3.044205034363242817e+02
2.840000000000000213e+01 3.005918112536734270e+02
2.850000000000000000e+01 2.939725662446686556e+02
2.860000000000000142e+01 3.000128164014776644e+02
2.870000000000000284e+01 3.031120572859741742e+02
2.880000000000000071e+01 3.045206011250388656e+02
2.890000000000000213e+01 2.966370696410859296e+02
2.900000000000000000e+01 2.982225123686953339e+02
2.910000000000000142e+01 2.963111204218359376e+02
2.920000000000000284e+01 2.951464615761932464e+02
2.930000000000000071e+01 3.005370214535453783e+02
2.940000000000000213e+01 3.006224696025244612e+02
2.950000000000000000e+01 2.988531072929785637e+02
2.960000000000000142e+01 2.910054988577928725e+02
2.970000000000000284e+01 2.849583861168324574e+02
2.980000000000000071e+01 2.882759551880163826e+02
2.990000000000000213e+01 2.952047779236045244e+02
3.000000000000000000e+01 2.922601756247328240e+02
3.010000000000000142e+01 2.854527612926061693e+02
3.020000000000000284e+01 2.861200752056758461e+02
3.030000000000000071e+01 2.891976846303747379e+02
3.040000000000000213e+01 2.855477982470937945e+02
3.050000000000000000e+01 2.899089264229820060e+02
3.060000000000000142e+01 2.864635600947520402e+02
3.070000000000000284e+01 2.827665975910680913e+02
3.080000000000000071e+01 2.866910414444120647e+02
3.090000000000000213e+01 2.875179978643939762e+02
3.100000000000000000e+01 2.862179001347460030e+02
3.110000000000000142e+01 2.882659963799040952e+02
3.120000000000000284e+01 2.881711704319114347e+02
3.130000000000000071e+01 2.797274369152560212e+02
3.140000000000000213e+01 2.838007702779518695e+02
3.150000000000000000e+01 2.885045968443384368e+02
3.160000000000000142e+01 2.816792544827583242e+02
3.170000000000000284e+01 2.861221669499496443e+02
3.180000000000000071e+01 2.864689085693157722e+02
3.190000000000000213e+01 2.869621898751892104e+02
3.200000000000000000e+01 2.893754503236895630e+02
3.210000000000000142e+01 2.915880017404755904e+02
3.220000000000000284e+01 2.947356440873451220e+02
3.230000000000000426e+01 3.003750380286994073e+02
3.239999999999999858e+01 2.985551650162956321e+02
3.250000000000000000e+01 3.057219191247512526e+02
3.260000000000000142e+01 3.084736207614938053e+02
3.270000000000000284e+01 3.139743916098863110e+02
3.280000000000000426e+01 3.119923891775629841e+02
3.289999999999999858e+01 3.086658660554215317e+02
3.300000000000000000e+01 3.038514353941761215e+02
3.310000000000000142e+01 3.107373309676832491e+02
3.320000000000000284e+01 3.183709925851288176e+02
3.330000000000000426e+01 3.188484543480867615e+02
3.339999999999999858e+01 3.188822689496934117e+02
3.350000000000000000e+01 3.227039916400470929e+02
3.360000000000000142e+01 3.208998656909445231e+02
3.370000000000000284e+01 3.234257938070795717e+02
3.380000000000000426e+01 3.208567523178874694e+02
3.389999999999999858e+01 3.205823686824012384e+02
3.400000000000000000e+01 3.183820800297014557e+02
3.410000000000000142e+01 3.169830559024802596e+02
3.420000000000000284e+01 3.216481787566753496e+02
3.430000000000000426e+01 3.228026523880751029e+02
3.439999999999999858e+01 3.264498434663515809e+02
3.450000000000000000e+01 3.322483934949645459e+02
3.460000000000000142e+01 3.321255893095625993e+02
3.470000000000000284e+01 3.262018201582271786e+02
3.480000000000000426e+01 3.204921956654671931e+02
3.489999999999999858e+01 3.288631743292093006e+02
3.500000000000000000e+01 3.325038235798739379e+02
3.510000000000000142e+01 3.313664331230482958e+02
3.520000000000000284e+01 3.348034878764425457e+02
3.530000000000000426e+01 3.253949673379786987e+02
3.539999999999999858e+01 3.255638320548463867e+02
3.550000000000000000e+01 3.226059730887022283e+02
3.560000000000000142e+01 3.272118520496964607e+02
3.570000000000000284e+01 3.329745333619455891e+02
3.580000000000000426e+01 3.366180637440975829e+02
3.589999999999999858e+01 3.425279022103196667e+02
3.600000000000000000e+01 3.398702059315323822e+02
3.610000000000000142e+01 3.323776674243048319e+02
3.620000000000000284e+01 3.394898748385849672e+02
3.630000000000000426e+01 3.433957540283219600e+02
3.639999999999999858e+01 3.439829643289650107e+02
3.650000000000000000e+01 3.441914589655530108e+02
3.660000000000000142e+01 3.518882357620643120e+02
3.670000000000000284e+01 3.507941340560812478e+02
3.680000000000000426e+01 3.496402538227332002e+02
3.689999999999999858e+01 3.500188061510626198e+02
3.700000000000000000e+01 3.526086819402199808e+02
3.710000000000000142e+01 3.572235396965207315e+02
3.720000000000000284e+01 3.589555521521065202e+02
3.730000000000000426e+01 3.614228802671713083e+02
3.739999999999999858e+01 3.600393129533975412e+02
3.750000000000000000e+01 3.548094134949540717e+02
3.760000000000000142e+01 3.595112606160932955e+02
3.770000000000000284e+01 3.605392132684619924e+02
3.780000000000000426e+01 3.583750714188148550e+02
3.789999999999999858e+01 3.587048049848157802e+02
3.800000000000000000e+01 3.587278410946740337e+02
3.810000000000000142e+01 3.592986635772227828e+02
3.820000000000000284e+01 3.542341596200492404e+02
3.830000000000000426e+01 3.500088909962396428e+02
3.840000000000000568e+01 3.494638674882411919e+02
3.850000000000000000e+01 3.572723745242788596e+02
3.860000000000000142e+01 3.614169547750952916e+02
3.870000000000000284e+01 3.563848136904720150e+02
3.880000000000000426e+01 3.584429094825856623e+02
3.890000000000000568e+01 3.542175789346554211e+02
3.900000000000000000e+01 3.532534718185334555e+02
3.910000000000000142e+01 3.578773070132654652e+02
3.920000000000000284e+01 3.683668484157231546e+02
3.930000000000000426e+01 3.732191457817473861e+02
3.940000000000000568e+01 3.677722180120669009e+02
3.950000000000000000e+01 3.661471542080068389e+02
3.960000000000000142e+01 3.712324017789214281e+02
3.970000000000000284e+01 3.721920150523952202e+02
3.980000000000000426e+01 3.786108341282711081e+02
